# DEMO ECG — SIMULATED/EDUCATIONAL DATA
# Not a real patient signal. For educational demonstration only.
time,amplitude
0.0000,0.000090
0.0040,0.000307
0.0080,0.000539
0.0120,0.000793
0.0160,0.001076
0.0200,0.001397
0.0240,0.001767
0.0280,0.002201
0.0320,0.002715
0.0360,0.003329
0.0400,0.004068
0.0440,0.004957
0.0480,0.006028
0.0520,0.007313
0.0560,0.008849
0.0600,0.010672
0.0640,0.012820
0.0680,0.015328
0.0720,0.018228
0.0760,0.021546
0.0800,0.025301
0.0840,0.029500
0.0880,0.034137
0.0920,0.039192
0.0960,0.044627
0.1000,0.050386
0.1040,0.056395
0.1080,0.062561
0.1120,0.068777
0.1160,0.074922
0.1200,0.080863
0.1240,0.086464
0.1280,0.091589
0.1320,0.096106
0.1360,0.099895
0.1400,0.102855
0.1440,0.104902
0.1480,0.105982
0.1520,0.106066
0.1560,0.105157
0.1600,0.103286
0.1640,0.100512
0.1680,0.096922
0.1720,0.092619
0.1760,0.087727
0.1800,0.082378
0.1840,0.076711
0.1880,0.070865
0.1920,0.064978
0.1960,0.059187
0.2000,0.053638
0.2040,0.048506
0.2080,0.044021
0.2120,0.040517
0.2160,0.038485
0.2200,0.038699
0.2240,0.042481
0.2280,0.052236
0.2320,0.072169
0.2360,0.108736
0.2400,0.169876
0.2440,0.262219
0.2480,0.386478
0.2520,0.532978
0.2560,0.680288
0.2600,0.799106
0.2640,0.860971
0.2680,0.848527
0.2720,0.762700
0.2760,0.623151
0.2800,0.461384
0.2840,0.309472
0.2880,0.189739
0.2920,0.110001
0.2960,0.065592
0.3000,0.045570
0.3040,0.038946
0.3080,0.038125
0.3120,0.039298
0.3160,0.041166
0.3200,0.043530
0.3240,0.046434
0.3280,0.049871
0.3320,0.053774
0.3360,0.058065
0.3400,0.062684
0.3440,0.067597
0.3480,0.072781
0.3520,0.078220
0.3560,0.083899
0.3600,0.089802
0.3640,0.095907
0.3680,0.102192
0.3720,0.108630
0.3760,0.115190
0.3800,0.121839
0.3840,0.128541
0.3880,0.135256
0.3920,0.141943
0.3960,0.148557
0.4000,0.155053
0.4040,0.161384
0.4080,0.167504
0.4120,0.173366
0.4160,0.178921
0.4200,0.184126
0.4240,0.188937
0.4280,0.193311
0.4320,0.197212
0.4360,0.200604
0.4400,0.203456
0.4440,0.205743
0.4480,0.207442
0.4520,0.208538
0.4560,0.209020
0.4600,0.208883
0.4640,0.208127
0.4680,0.206759
0.4720,0.204791
0.4760,0.202239
0.4800,0.199127
0.4840,0.195481
0.4880,0.191333
0.4920,0.186719
0.4960,0.181678
0.5000,0.176251
0.5040,0.170483
0.5080,0.164419
0.5120,0.158107
0.5160,0.151593
0.5200,0.144924
0.5240,0.138148
0.5280,0.131308
0.5320,0.124450
0.5360,0.117613
0.5400,0.110838
0.5440,0.104159
0.5480,0.097610
0.5520,0.091221
0.5560,0.085017
0.5600,0.079022
0.5640,0.073254
0.5680,0.067729
0.5720,0.062459
0.5760,0.057453
0.5800,0.052718
0.5840,0.048256
0.5880,0.044067
0.5920,0.040149
0.5960,0.036498
0.6000,0.033108
0.6040,0.029970
0.6080,0.027076
0.6120,0.024414
0.6160,0.021974
0.6200,0.019743
0.6240,0.017709
0.6280,0.015860
0.6320,0.014182
0.6360,0.012663
0.6400,0.011290
0.6440,0.010051
0.6480,0.008935
0.6520,0.007930
0.6560,0.007025
0.6600,0.006211
0.6640,0.005479
0.6680,0.004819
0.6720,0.004224
0.6760,0.003685
0.6800,0.003197
0.6840,0.002754
0.6880,0.002349
0.6920,0.001978
0.6960,0.001636
0.7000,0.001319
0.7040,0.001025
0.7080,0.000749
0.7120,0.000490
0.7160,0.000244
0.7200,0.000010
0.7240,-0.000214
0.7280,-0.000430
0.7320,-0.000638
0.7360,-0.000840
0.7400,-0.001037
0.7440,-0.001230
0.7480,-0.001419
0.7520,-0.001604
0.7560,-0.001787
0.7600,-0.001968
0.7640,-0.002146
0.7680,-0.002322
0.7720,-0.002497
0.7760,-0.002670
0.7800,-0.002841
0.7840,-0.003011
0.7880,-0.003180
0.7920,-0.003348
0.7960,-0.003514
0.8000,-0.003679
0.8040,-0.003842
0.8080,-0.004005
0.8120,-0.004166
0.8160,-0.004325
0.8200,-0.004483
0.8240,-0.004640
0.8280,-0.004795
0.8320,-0.004859
0.8360,-0.004970
0.8400,-0.005064
0.8440,-0.005135
0.8480,-0.005175
0.8520,-0.005175
0.8560,-0.005123
0.8600,-0.005006
0.8640,-0.004807
0.8680,-0.004505
0.8720,-0.004076
0.8760,-0.003494
0.8800,-0.002728
0.8840,-0.001744
0.8880,-0.000507
0.8920,0.001020
0.8960,0.002874
0.9000,0.005092
0.9040,0.007705
0.9080,0.010739
0.9120,0.014214
0.9160,0.018136
0.9200,0.022500
0.9240,0.027285
0.9280,0.032454
0.9320,0.037950
0.9360,0.043700
0.9400,0.049612
0.9440,0.055578
0.9480,0.061476
0.9520,0.067175
0.9560,0.072538
0.9600,0.077429
0.9640,0.081716
0.9680,0.085281
0.9720,0.088020
0.9760,0.089852
0.9800,0.090720
0.9840,0.090598
0.9880,0.089487
0.9920,0.087419
0.9960,0.084454
1.0000,0.080676
1.0040,0.076192
1.0080,0.071123
1.0120,0.065602
1.0160,0.059769
1.0200,0.053761
1.0240,0.047718
1.0280,0.041777
1.0320,0.036083
1.0360,0.030811
1.0400,0.026192
1.0440,0.022559
1.0480,0.020404
1.0520,0.020500
1.0560,0.024170
1.0600,0.033819
1.0640,0.053651
1.0680,0.090123
1.0720,0.151175
1.0760,0.243434
1.0800,0.367615
1.0840,0.514044
1.0880,0.661288
1.0920,0.780046
1.0960,0.841856
1.1000,0.829365
1.1040,0.743495
1.1080,0.603911
1.1120,0.442113
1.1160,0.290177
1.1200,0.170426
1.1240,0.090675
1.1280,0.046259
1.1320,0.026237
1.1360,0.019618
1.1400,0.018809
1.1440,0.019999
1.1480,0.021891
1.1520,0.024285
1.1560,0.027224
1.1600,0.030703
1.1640,0.034653
1.1680,0.038996
1.1720,0.043675
1.1760,0.048653
1.1800,0.053907
1.1840,0.059423
1.1880,0.065185
1.1920,0.071176
1.1960,0.077375
1.2000,0.083760
1.2040,0.090303
1.2080,0.096975
1.2120,0.103741
1.2160,0.110565
1.2200,0.117408
1.2240,0.124228
1.2280,0.130981
1.2320,0.137622
1.2360,0.144103
1.2400,0.150378
1.2440,0.156400
1.2480,0.162122
1.2520,0.167497
1.2560,0.172484
1.2600,0.177040
1.2640,0.181127
1.2680,0.184710
1.2720,0.187758
1.2760,0.190246
1.2800,0.192151
1.2840,0.193457
1.2880,0.194154
1.2920,0.194237
1.2960,0.193705
1.3000,0.192566
1.3040,0.190831
1.3080,0.188517
1.3120,0.185646
1.3160,0.182246
1.3200,0.178348
1.3240,0.173989
1.3280,0.169205
1.3320,0.164040
1.3360,0.158538
1.3400,0.152743
1.3440,0.146703
1.3480,0.140466
1.3520,0.134077
1.3560,0.127584
1.3600,0.121031
1.3640,0.114462
1.3680,0.107918
1.3720,0.101439
1.3760,0.095059
1.3800,0.088812
1.3840,0.082726
1.3880,0.076829
1.3920,0.071143
1.3960,0.065687
1.4000,0.060476
1.4040,0.055523
1.4080,0.050836
1.4120,0.046421
1.4160,0.042281
1.4200,0.038417
1.4240,0.034825
1.4280,0.031502
1.4320,0.028441
1.4360,0.025634
1.4400,0.023072
1.4440,0.020743
1.4480,0.018638
1.4520,0.016743
1.4560,0.015045
1.4600,0.013533
1.4640,0.012193
1.4680,0.011013
1.4720,0.009979
1.4760,0.009080
1.4800,0.008303
1.4840,0.007638
1.4880,0.007074
1.4920,0.006600
1.4960,0.006208
1.5000,0.005887
1.5040,0.005631
1.5080,0.005432
1.5120,0.005283
1.5160,0.005177
1.5200,0.005109
1.5240,0.005074
1.5280,0.005067
1.5320,0.005085
1.5360,0.005124
1.5400,0.005180
1.5440,0.005251
1.5480,0.005334
1.5520,0.005427
1.5560,0.005529
1.5600,0.005637
1.5640,0.005751
1.5680,0.005869
1.5720,0.005989
1.5760,0.006113
1.5800,0.006237
1.5840,0.006363
1.5880,0.006489
1.5920,0.006614
1.5960,0.006740
1.6000,0.006864
1.6040,0.006987
1.6080,0.007109
1.6120,0.007229
1.6160,0.007348
1.6200,0.007465
1.6240,0.007580
1.6280,0.007692
1.6320,0.007803
1.6360,0.007911
1.6400,0.008017
1.6440,0.008121
1.6480,0.008222
1.6520,0.008321
1.6560,0.008417
1.6600,0.008510
1.6640,0.008691
1.6680,0.008820
1.6720,0.008962
1.6760,0.009124
1.6800,0.009311
1.6840,0.009535
1.6880,0.009804
1.6920,0.010135
1.6960,0.010544
1.7000,0.011050
1.7040,0.011678
1.7080,0.012455
1.7120,0.013411
1.7160,0.014580
1.7200,0.015996
1.7240,0.017698
1.7280,0.019722
1.7320,0.022104
1.7360,0.024876
1.7400,0.028064
1.7440,0.031687
1.7480,0.035752
1.7520,0.040253
1.7560,0.045170
1.7600,0.050465
1.7640,0.056082
1.7680,0.061948
1.7720,0.067969
1.7760,0.074039
1.7800,0.080035
1.7840,0.085826
1.7880,0.091276
1.7920,0.096248
1.7960,0.100610
1.8000,0.104244
1.8040,0.107047
1.8080,0.108936
1.8120,0.109856
1.8160,0.109779
1.8200,0.108708
1.8240,0.106674
1.8280,0.103736
1.8320,0.099980
1.8360,0.095512
1.8400,0.090452
1.8440,0.084936
1.8480,0.079100
1.8520,0.073085
1.8560,0.067027
1.8600,0.061066
1.8640,0.055346
1.8680,0.050042
1.8720,0.045385
1.8760,0.041708
1.8800,0.039503
1.8840,0.039543
1.8880,0.043152
1.8920,0.052733
1.8960,0.072493
1.9000,0.108885
1.9040,0.169852
1.9080,0.262020
1.9120,0.386105
1.9160,0.532431
1.9200,0.679568
1.9240,0.798211
1.9280,0.859903
1.9320,0.847287
1.9360,0.761286
1.9400,0.621566
1.9440,0.459627
1.9480,0.307544
1.9520,0.187641
1.9560,0.107733
1.9600,0.063155
1.9640,0.042964
1.9680,0.036172
1.9720,0.035185
1.9760,0.036192
1.9800,0.037895
1.9840,0.040096
1.9880,0.042837
1.9920,0.046112
1.9960,0.049855
2.0000,0.053986
2.0040,0.058447
2.0080,0.063203
2.0120,0.068232
2.0160,0.073517
2.0200,0.079044
2.0240,0.084795
2.0280,0.090751
2.0320,0.096888
2.0360,0.103180
2.0400,0.109596
2.0440,0.116102
2.0480,0.122663
2.0520,0.129239
2.0560,0.135788
2.0600,0.142266
2.0640,0.148629
2.0680,0.154829
2.0720,0.160820
2.0760,0.166554
2.0800,0.171984
2.0840,0.177066
2.0880,0.181755
2.0920,0.186011
2.0960,0.189796
2.1000,0.193073
2.1040,0.195814
2.1080,0.197991
2.1120,0.199583
2.1160,0.200574
2.1200,0.200954
2.1240,0.200717
2.1280,0.199864
2.1320,0.198402
2.1360,0.196341
2.1400,0.193700
2.1440,0.190501
2.1480,0.186771
2.1520,0.182542
2.1560,0.177850
2.1600,0.172732
2.1640,0.167233
2.1680,0.161394
2.1720,0.155263
2.1760,0.148885
2.1800,0.142309
2.1840,0.135582
2.1880,0.128749
2.1920,0.121857
2.1960,0.114948
2.2000,0.108064
2.2040,0.101244
2.2080,0.094524
2.2120,0.087937
2.2160,0.081512
2.2200,0.075276
2.2240,0.069251
2.2280,0.063457
2.2320,0.057908
2.2360,0.052618
2.2400,0.047596
2.2440,0.042846
2.2480,0.038373
2.2520,0.034176
2.2560,0.030253
2.2600,0.026600
2.2640,0.023211
2.2680,0.020077
2.2720,0.017190
2.2760,0.014538
2.2800,0.012112
2.2840,0.009897
2.2880,0.007883
2.2920,0.006056
2.2960,0.004404
2.3000,0.002913
2.3040,0.001571
2.3080,0.000367
2.3120,-0.000711
2.3160,-0.001676
2.3200,-0.002537
2.3240,-0.003304
2.3280,-0.003987
2.3320,-0.004595
2.3360,-0.005135
2.3400,-0.005615
2.3440,-0.006042
2.3480,-0.006422
2.3520,-0.006760
2.3560,-0.007062
2.3600,-0.007331
2.3640,-0.007572
2.3680,-0.007789
2.3720,-0.007984
2.3760,-0.008160
2.3800,-0.008320
2.3840,-0.008465
2.3880,-0.008598
2.3920,-0.008720
2.3960,-0.008832
2.4000,-0.008935
2.4040,-0.009030
2.4080,-0.009119
2.4120,-0.009202
2.4160,-0.009278
2.4200,-0.009350
2.4240,-0.009417
2.4280,-0.009479
2.4320,-0.009538
2.4360,-0.009592
2.4400,-0.009642
2.4440,-0.009689
2.4480,-0.009733
2.4520,-0.009773
2.4560,-0.009809
2.4600,-0.009842
2.4640,-0.009872
2.4680,-0.009899
2.4720,-0.009923
2.4760,-0.009943
2.4800,-0.009961
2.4840,-0.009975
2.4880,-0.009986
2.4920,-0.009993
2.4960,-0.009908
2.5000,-0.009869
2.5040,-0.009811
2.5080,-0.009728
2.5120,-0.009613
2.5160,-0.009457
2.5200,-0.009248
2.5240,-0.008972
2.5280,-0.008612
2.5320,-0.008149
2.5360,-0.007558
2.5400,-0.006812
2.5440,-0.005881
2.5480,-0.004732
2.5520,-0.003329
2.5560,-0.001634
2.5600,0.000389
2.5640,0.002775
2.5680,0.005558
2.5720,0.008763
2.5760,0.012408
2.5800,0.016502
2.5840,0.021037
2.5880,0.025995
2.5920,0.031337
2.5960,0.037006
2.6000,0.042930
2.6040,0.049016
2.6080,0.055155
2.6120,0.061227
2.6160,0.067100
2.6200,0.072637
2.6240,0.077702
2.6280,0.082164
2.6320,0.085903
2.6360,0.088815
2.6400,0.090820
2.6440,0.091862
2.6480,0.091913
2.6520,0.090974
2.6560,0.089078
2.6600,0.086284
2.6640,0.082677
2.6680,0.078363
2.6720,0.073464
2.6760,0.068112
2.6800,0.062446
2.6840,0.056606
2.6880,0.050730
2.6920,0.044954
2.6960,0.039424
2.7000,0.034315
2.7040,0.029859
2.7080,0.026387
2.7120,0.024392
2.7160,0.024647
2.7200,0.028475
2.7240,0.038279
2.7280,0.058267
2.7320,0.094892
2.7360,0.156095
2.7400,0.248505
2.7440,0.372835
2.7480,0.519410
2.7520,0.666800
2.7560,0.785701
2.7600,0.847654
2.7640,0.835303
2.7680,0.749572
2.7720,0.610124
2.7760,0.448461
2.7800,0.296657
2.7840,0.177036
2.7880,0.097414
2.7920,0.053125
2.7960,0.033227
2.8000,0.026731
2.8040,0.026042
2.8080,0.027350
2.8120,0.029357
2.8160,0.031864
2.8200,0.034914
2.8240,0.038501
2.8280,0.042557
2.8320,0.047004
2.8360,0.051784
2.8400,0.056860
2.8440,0.062211
2.8480,0.067820
2.8520,0.073673
2.8560,0.079752
2.8600,0.086037
2.8640,0.092505
2.8680,0.099128
2.8720,0.105877
2.8760,0.112718
2.8800,0.119615
2.8840,0.126527
2.8880,0.133413
2.8920,0.140229
2.8960,0.146931
2.9000,0.153470
2.9040,0.159800
2.9080,0.165873
2.9120,0.171644
2.9160,0.177066
2.9200,0.182096
2.9240,0.186692
2.9280,0.190816
2.9320,0.194433
2.9360,0.197512
2.9400,0.200028
2.9440,0.201958
2.9480,0.203287
2.9520,0.204003
2.9560,0.204101
2.9600,0.203583
2.9640,0.202453
2.9680,0.200725
2.9720,0.198414
2.9760,0.195544
2.9800,0.192142
2.9840,0.188239
2.9880,0.183870
2.9920,0.179075
2.9960,0.173896
3.0000,0.168375
3.0040,0.162560
3.0080,0.156497
3.0120,0.150232
3.0160,0.143814
3.0200,0.137288
3.0240,0.130699
3.0280,0.124091
3.0320,0.117506
3.0360,0.110981
3.0400,0.104554
3.0440,0.098256
3.0480,0.092117
3.0520,0.086163
3.0560,0.080418
3.0600,0.074899
3.0640,0.069623
3.0680,0.064602
3.0720,0.059844
3.0760,0.055356
3.0800,0.051140
3.0840,0.047196
3.0880,0.043523
3.0920,0.040115
3.0960,0.036967
3.1000,0.034070
3.1040,0.031416
3.1080,0.028993
3.1120,0.026789
3.1160,0.024794
3.1200,0.022994
3.1240,0.021377
3.1280,0.019930
3.1320,0.018639
3.1360,0.017493
3.1400,0.016480
3.1440,0.015586
3.1480,0.014802
3.1520,0.014117
3.1560,0.013520
3.1600,0.013002
3.1640,0.012554
3.1680,0.012168
3.1720,0.011837
3.1760,0.011554
3.1800,0.011312
3.1840,0.011107
3.1880,0.010932
3.1920,0.010784
3.1960,0.010659
3.2000,0.010553
3.2040,0.010463
3.2080,0.010385
3.2120,0.010319
3.2160,0.010261
3.2200,0.010210
3.2240,0.010164
3.2280,0.010122
3.2320,0.010083
3.2360,0.010046
3.2400,0.010009
3.2440,0.009973
3.2480,0.009937
3.2520,0.009900
3.2560,0.009862
3.2600,0.009822
3.2640,0.009780
3.2680,0.009737
3.2720,0.009691
3.2760,0.009643
3.2800,0.009592
3.2840,0.009539
3.2880,0.009483
3.2920,0.009425
3.2960,0.009364
3.3000,0.009300
3.3040,0.009233
3.3080,0.009164
3.3120,0.009091
3.3160,0.009017
3.3200,0.008939
3.3240,0.008859
3.3280,0.008866
3.3320,0.008820
3.3360,0.008788
3.3400,0.008776
3.3440,0.008789
3.3480,0.008839
3.3520,0.008935
3.3560,0.009092
3.3600,0.009328
3.3640,0.009662
3.3680,0.010118
3.3720,0.010723
3.3760,0.011508
3.3800,0.012505
3.3840,0.013752
3.3880,0.015284
3.3920,0.017140
3.3960,0.019354
3.4000,0.021959
3.4040,0.024982
3.4080,0.028439
3.4120,0.032340
3.4160,0.036679
3.4200,0.041434
3.4240,0.046568
3.4280,0.052026
3.4320,0.057733
3.4360,0.063598
3.4400,0.069512
3.4440,0.075354
3.4480,0.080992
3.4520,0.086291
3.4560,0.091113
3.4600,0.095328
3.4640,0.098815
3.4680,0.101473
3.4720,0.103219
3.4760,0.103998
3.4800,0.103782
3.4840,0.102573
3.4880,0.100403
3.4920,0.097332
3.4960,0.093444
3.5000,0.088845
3.5040,0.083658
3.5080,0.078016
3.5120,0.072057
3.5160,0.065920
3.5200,0.059744
3.5240,0.053666
3.5280,0.047832
3.5320,0.042415
3.5360,0.037649
3.5400,0.033864
3.5440,0.031554
3.5480,0.031492
3.5520,0.035001
3.5560,0.044484
3.5600,0.064148
3.5640,0.100449
3.5680,0.161325
3.5720,0.253407
3.5760,0.377407
3.5800,0.523652
3.5840,0.670709
3.5880,0.789276
3.5920,0.850895
3.5960,0.838207
3.6000,0.752139
3.6040,0.612354
3.6080,0.450353
3.6120,0.298210
3.6160,0.178250
3.6200,0.098289
3.6240,0.053660
3.6280,0.033422
3.6320,0.026585
3.6360,0.025556
3.6400,0.026524
3.6440,0.028191
3.6480,0.030359
3.6520,0.033070
3.6560,0.036319
3.6600,0.040038
3.6640,0.044148
3.6680,0.048592
3.6720,0.053333
3.6760,0.058350
3.6800,0.063627
3.6840,0.069148
3.6880,0.074897
3.6920,0.080854
3.6960,0.086994
3.7000,0.093293
3.7040,0.099718
3.7080,0.106238
3.7120,0.112815
3.7160,0.119409
3.7200,0.125981
3.7240,0.132484
3.7280,0.138875
3.7320,0.145106
3.7360,0.151131
3.7400,0.156902
3.7440,0.162373
3.7480,0.167497
3.7520,0.172233
3.7560,0.176538
3.7600,0.180374
3.7640,0.183707
3.7680,0.186505
3.7720,0.188743
3.7760,0.190398
3.7800,0.191456
3.7840,0.191905
3.7880,0.191740
3.7920,0.190962
3.7960,0.189577
3.8000,0.187596
3.8040,0.185038
3.8080,0.181925
3.8120,0.178283
3.8160,0.174145
3.8200,0.169546
3.8240,0.164525
3.8280,0.159124
3.8320,0.153386
3.8360,0.147358
3.8400,0.141087
3.8440,0.134620
3.8480,0.128003
3.8520,0.121283
3.8560,0.114506
3.8600,0.107715
3.8640,0.100952
3.8680,0.094254
3.8720,0.087658
3.8760,0.081198
3.8800,0.074902
3.8840,0.068796
3.8880,0.062904
3.8920,0.057244
3.8960,0.051832
3.9000,0.046680
3.9040,0.041798
3.9080,0.037190
3.9120,0.032860
3.9160,0.028809
3.9200,0.025033
3.9240,0.021529
3.9280,0.018290
3.9320,0.015308
3.9360,0.012575
3.9400,0.010078
3.9440,0.007807
3.9480,0.005750
3.9520,0.003895
3.9560,0.002228
3.9600,0.000737
3.9640,-0.000592
3.9680,-0.001770
3.9720,-0.002809
3.9760,-0.003723
3.9800,-0.004521
3.9840,-0.005215
3.9880,-0.005814
3.9920,-0.006328
3.9960,-0.006766
4.0000,-0.007136
4.0040,-0.007445
4.0080,-0.007701
4.0120,-0.007909
4.0160,-0.008075
4.0200,-0.008203
4.0240,-0.008300
4.0280,-0.008367
4.0320,-0.008410
4.0360,-0.008432
4.0400,-0.008434
4.0440,-0.008419
4.0480,-0.008391
4.0520,-0.008349
4.0560,-0.008297
4.0600,-0.008235
4.0640,-0.008165
4.0680,-0.008087
4.0720,-0.008002
4.0760,-0.007912
4.0800,-0.007816
4.0840,-0.007716
4.0880,-0.007611
4.0920,-0.007503
4.0960,-0.007391
4.1000,-0.007275
4.1040,-0.007157
4.1080,-0.007036
4.1120,-0.006912
4.1160,-0.006785
4.1200,-0.006656
4.1240,-0.006525
4.1280,-0.006391
4.1320,-0.006255
4.1360,-0.006118
4.1400,-0.005978
4.1440,-0.005836
4.1480,-0.005693
4.1520,-0.005547
4.1560,-0.005400
4.1600,-0.005161
4.1640,-0.004970
4.1680,-0.004762
4.1720,-0.004530
4.1760,-0.004267
4.1800,-0.003965
4.1840,-0.003612
4.1880,-0.003194
4.1920,-0.002694
4.1960,-0.002092
4.2000,-0.001364
4.2040,-0.000483
4.2080,0.000580
4.2120,0.001860
4.2160,0.003393
4.2200,0.005214
4.2240,0.007361
4.2280,0.009870
4.2320,0.012773
4.2360,0.016096
4.2400,0.019858
4.2440,0.024064
4.2480,0.028712
4.2520,0.033778
4.2560,0.039226
4.2600,0.044999
4.2640,0.051025
4.2680,0.057209
4.2720,0.063445
4.2760,0.069611
4.2800,0.075575
4.2840,0.081201
4.2880,0.086352
4.2920,0.090897
4.2960,0.094716
4.3000,0.097707
4.3040,0.099787
4.3080,0.100901
4.3120,0.101021
4.3160,0.100150
4.3200,0.098318
4.3240,0.095585
4.3280,0.092036
4.3320,0.087777
4.3360,0.082930
4.3400,0.077627
4.3440,0.072008
4.3480,0.066212
4.3520,0.060376
4.3560,0.054637
4.3600,0.049143
4.3640,0.044065
4.3680,0.039637
4.3720,0.036190
4.3760,0.034218
4.3800,0.034492
4.3840,0.038337
4.3880,0.048155
4.3920,0.068152
4.3960,0.104785
4.4000,0.165992
4.4040,0.258403
4.4080,0.382731
4.4120,0.529302
4.4160,0.676683
4.4200,0.795573
4.4240,0.857512
4.4280,0.845144
4.4320,0.759392
4.4360,0.619921
4.4400,0.458231
4.4440,0.306398
4.4480,0.186745
4.4520,0.107088
4.4560,0.062760
4.4600,0.042821
4.4640,0.036280
4.4680,0.035544
4.4720,0.036801
4.4760,0.038755
4.4800,0.041206
4.4840,0.044197
4.4880,0.047722
4.4920,0.051714
4.4960,0.056093
4.5000,0.060803
4.5040,0.065806
4.5080,0.071081
4.5120,0.076611
4.5160,0.082383
4.5200,0.088378
4.5240,0.094576
4.5280,0.100954
4.5320,0.107486
4.5360,0.114140
4.5400,0.120884
4.5440,0.127680
4.5480,0.134490
4.5520,0.141272
4.5560,0.147981
4.5600,0.154573
4.5640,0.161000
4.5680,0.167216
4.5720,0.173174
4.5760,0.178825
4.5800,0.184126
4.5840,0.189033
4.5880,0.193504
4.5920,0.197500
4.5960,0.200988
4.6000,0.203936
4.6040,0.206318
4.6080,0.208113
4.6120,0.209304
4.6160,0.209881
4.6200,0.209838
4.6240,0.209177
4.6280,0.207903
4.6320,0.206028
4.6360,0.203570
4.6400,0.200551
4.6440,0.196997
4.6480,0.192942
4.6520,0.188419
4.6560,0.183469
4.6600,0.178133
4.6640,0.172454
4.6680,0.166480
4.6720,0.160256
4.6760,0.153830
4.6800,0.147248
4.6840,0.140558
4.6880,0.133805
4.6920,0.127031
4.6960,0.120279
4.7000,0.113587
4.7040,0.106991
4.7080,0.100524
4.7120,0.094215
4.7160,0.088091
4.7200,0.082175
4.7240,0.076485
4.7280,0.071036
4.7320,0.065843
4.7360,0.060912
4.7400,0.056250
4.7440,0.051861
4.7480,0.047743
4.7520,0.043896
4.7560,0.040314
4.7600,0.036992
4.7640,0.033921
4.7680,0.031092
4.7720,0.028495
4.7760,0.026118
4.7800,0.023949
4.7840,0.021976
4.7880,0.020186
4.7920,0.018566
4.7960,0.017103
4.8000,0.015785
4.8040,0.014600
4.8080,0.013537
4.8120,0.012582
4.8160,0.011728
4.8200,0.010962
4.8240,0.010276
4.8280,0.009661
4.8320,0.009109
4.8360,0.008613
4.8400,0.008166
4.8440,0.007761
4.8480,0.007394
4.8520,0.007058
4.8560,0.006751
4.8600,0.006467
4.8640,0.006204
4.8680,0.005958
4.8720,0.005726
4.8760,0.005507
4.8800,0.005297
4.8840,0.005096
4.8880,0.004902
4.8920,0.004714
4.8960,0.004530
4.9000,0.004349
4.9040,0.004171
4.9080,0.003996
4.9120,0.003821
4.9160,0.003648
4.9200,0.003476
4.9240,0.003304
4.9280,0.003132
4.9320,0.002961
4.9360,0.002789
4.9400,0.002617
4.9440,0.002445
4.9480,0.002273
4.9520,0.002100
4.9560,0.001926
4.9600,0.001753
4.9640,0.001579
4.9680,0.001404
4.9720,0.001229
4.9760,0.001054
4.9800,0.000879
4.9840,0.000704
4.9880,0.000528
4.9920,0.000442
4.9960,0.000307
5.0000,0.000187
5.0040,0.000090
5.0080,0.000021
5.0120,-0.000009
5.0160,0.000011
5.0200,0.000094
5.0240,0.000258
5.0280,0.000524
5.0320,0.000915
5.0360,0.001457
5.0400,0.002182
5.0440,0.003123
5.0480,0.004315
5.0520,0.005797
5.0560,0.007604
5.0600,0.009773
5.0640,0.012336
5.0680,0.015319
5.0720,0.018741
5.0760,0.022608
5.0800,0.026916
5.0840,0.031644
5.0880,0.036755
5.0920,0.042191
5.0960,0.047880
5.1000,0.053730
5.1040,0.059632
5.1080,0.065465
5.1120,0.071097
5.1160,0.076393
5.1200,0.081215
5.1240,0.085433
5.1280,0.088927
5.1320,0.091594
5.1360,0.093353
5.1400,0.094147
5.1440,0.093949
5.1480,0.092762
5.1520,0.090617
5.1560,0.087573
5.1600,0.083716
5.1640,0.079151
5.1680,0.074001
5.1720,0.068399
5.1760,0.062482
5.1800,0.056391
5.1840,0.050264
5.1880,0.044237
5.1920,0.038457
5.1960,0.033098
5.2000,0.028391
5.2040,0.024670
5.2080,0.022426
5.2120,0.022433
5.2160,0.026013
5.2200,0.035571
5.2240,0.055312
5.2280,0.091692
5.2320,0.152652
5.2360,0.244818
5.2400,0.368906
5.2440,0.515241
5.2480,0.662392
5.2520,0.781055
5.2560,0.842771
5.2600,0.830185
5.2640,0.744220
5.2680,0.604540
5.2720,0.442647
5.2760,0.290615
5.2800,0.170768
5.2840,0.090922
5.2880,0.046410
5.2920,0.026292
5.2960,0.019577
5.3000,0.018672
5.3040,0.019766
5.3080,0.021562
5.3120,0.023860
5.3160,0.026703
5.3200,0.030087
5.3240,0.033941
5.3280,0.038190
5.3320,0.042774
5.3360,0.047657
5.3400,0.052817
5.3440,0.058239
5.3480,0.063907
5.3520,0.069805
5.3560,0.075912
5.3600,0.082204
5.3640,0.088656
5.3680,0.095236
5.3720,0.101911
5.3760,0.108645
5.3800,0.115399
5.3840,0.122130
5.3880,0.128794
5.3920,0.135347
5.3960,0.141742
5.4000,0.147931
5.4040,0.153867
5.4080,0.159504
5.4120,0.164796
5.4160,0.169699
5.4200,0.174173
5.4240,0.178179
5.4280,0.181681
5.4320,0.184650
5.4360,0.187059
5.4400,0.188887
5.4440,0.190117
5.4480,0.190738
5.4520,0.190747
5.4560,0.190142
5.4600,0.188930
5.4640,0.187124
5.4680,0.184740
5.4720,0.181801
5.4760,0.178333
5.4800,0.174369
5.4840,0.169944
5.4880,0.165097
5.4920,0.159869
5.4960,0.154305
5.5000,0.148451
5.5040,0.142352
5.5080,0.136057
5.5120,0.129613
5.5160,0.123065
5.5200,0.116459
5.5240,0.109838
5.5280,0.103244
5.5320,0.096716
5.5360,0.090288
5.5400,0.083995
5.5440,0.077865
5.5480,0.071926
5.5520,0.066198
5.5560,0.060702
5.5600,0.055453
5.5640,0.050462
5.5680,0.045740
5.5720,0.041292
5.5760,0.037120
5.5800,0.033225
5.5840,0.029604
5.5880,0.026254
5.5920,0.023167
5.5960,0.020336
5.6000,0.017752
5.6040,0.015403
5.6080,0.013278
5.6120,0.011365
5.6160,0.009652
5.6200,0.008126
5.6240,0.006774
5.6280,0.005582
5.6320,0.004540
5.6360,0.003633
5.6400,0.002851
5.6440,0.002182
5.6480,0.001615
5.6520,0.001141
5.6560,0.000750
5.6600,0.000432
5.6640,0.000181
5.6680,-0.000012
5.6720,-0.000154
5.6760,-0.000250
5.6800,-0.000307
5.6840,-0.000329
5.6880,-0.000321
5.6920,-0.000287
5.6960,-0.000231
5.7000,-0.000155
5.7040,-0.000063
5.7080,0.000043
5.7120,0.000161
5.7160,0.000288
5.7200,0.000424
5.7240,0.000567
5.7280,0.000716
5.7320,0.000870
5.7360,0.001027
5.7400,0.001187
5.7440,0.001350
5.7480,0.001515
5.7520,0.001681
5.7560,0.001848
5.7600,0.002016
5.7640,0.002184
5.7680,0.002352
5.7720,0.002520
5.7760,0.002688
5.7800,0.002856
5.7840,0.003023
5.7880,0.003189
5.7920,0.003354
5.7960,0.003519
5.8000,0.003683
5.8040,0.003845
5.8080,0.004007
5.8120,0.004167
5.8160,0.004326
5.8200,0.004484
5.8240,0.004731
5.8280,0.004926
5.8320,0.005136
5.8360,0.005367
5.8400,0.005625
5.8440,0.005919
5.8480,0.006262
5.8520,0.006666
5.8560,0.007149
5.8600,0.007731
5.8640,0.008436
5.8680,0.009291
5.8720,0.010326
5.8760,0.011574
5.8800,0.013071
5.8840,0.014854
5.8880,0.016961
5.8920,0.019426
5.8960,0.022282
5.9000,0.025555
5.9040,0.029264
5.9080,0.033415
5.9120,0.038003
5.9160,0.043008
5.9200,0.048392
5.9240,0.054098
5.9280,0.060054
5.9320,0.066165
5.9360,0.072326
5.9400,0.078413
5.9440,0.084297
5.9480,0.089839
5.9520,0.094903
5.9560,0.099359
5.9600,0.103087
5.9640,0.105983
5.9680,0.107967
5.9720,0.108982
5.9760,0.109000
5.9800,0.108024
5.9840,0.106085
5.9880,0.103243
5.9920,0.099583
5.9960,0.095210
6.0000,0.090247
6.0040,0.084826
6.0080,0.079086
6.0120,0.073167
6.0160,0.067206
6.0200,0.061340
6.0240,0.055716
6.0280,0.050508
6.0320,0.045947
6.0360,0.042365
6.0400,0.040255
6.0440,0.040391
6.0480,0.044094
6.0520,0.053769
6.0560,0.073623
6.0600,0.110109
6.0640,0.171169
6.0680,0.263431
6.0720,0.387608
6.0760,0.534027
6.0800,0.681254
6.0840,0.799989
6.0880,0.861772
6.0920,0.849245
6.0960,0.763334
6.1000,0.623703
6.1040,0.461852
6.1080,0.309856
6.1120,0.190039
6.1160,0.110217
6.1200,0.065724
6.1240,0.045618
6.1280,0.038910
6.1320,0.038005
6.1360,0.039094
6.1400,0.040878
6.1440,0.043158
6.1480,0.045978
6.1520,0.049332
6.1560,0.053151
6.1600,0.057359
6.1640,0.061895
6.1680,0.066725
6.1720,0.071826
6.1760,0.077183
6.1800,0.082781
6.1840,0.088602
6.1880,0.094626
6.1920,0.100830
6.1960,0.107187
6.2000,0.113668
6.2040,0.120238
6.2080,0.126860
6.2120,0.133497
6.2160,0.140106
6.2200,0.146642
6.2240,0.153062
6.2280,0.159317
6.2320,0.165362
6.2360,0.171148
6.2400,0.176630
6.2440,0.181761
6.2480,0.186499
6.2520,0.190802
6.2560,0.194631
6.2600,0.197953
6.2640,0.200736
6.2680,0.202953
6.2720,0.204585
6.2760,0.205614
6.2800,0.206030
6.2840,0.205828
6.2880,0.205008
6.2920,0.203576
6.2960,0.201546
6.3000,0.198933
6.3040,0.195760
6.3080,0.192055
6.3120,0.187850
6.3160,0.183179
6.3200,0.178081
6.3240,0.172600
6.3280,0.166778
6.3320,0.160662
6.3360,0.154298
6.3400,0.147734
6.3440,0.141016
6.3480,0.134192
6.3520,0.127306
6.3560,0.120402
6.3600,0.113522
6.3640,0.106703
6.3680,0.099983
6.3720,0.093394
6.3760,0.086966
6.3800,0.080725
6.3840,0.074693
6.3880,0.068890
6.3920,0.063331
6.3960,0.058029
6.4000,0.052993
6.4040,0.048228
6.4080,0.043737
6.4120,0.039522
6.4160,0.035579
6.4200,0.031904
6.4240,0.028491
6.4280,0.025332
6.4320,0.022418
6.4360,0.019739
6.4400,0.017282
6.4440,0.015036
6.4480,0.012988
6.4520,0.011127
6.4560,0.009438
6.4600,0.007909
6.4640,0.006528
6.4680,0.005283
6.4720,0.004162
6.4760,0.003153
6.4800,0.002247
6.4840,0.001433
6.4880,0.000701
6.4920,0.000044
6.4960,-0.000548
6.5000,-0.001081
6.5040,-0.001562
6.5080,-0.001997
6.5120,-0.002392
6.5160,-0.002752
6.5200,-0.003081
6.5240,-0.003384
6.5280,-0.003662
6.5320,-0.003921
6.5360,-0.004162
6.5400,-0.004388
6.5440,-0.004600
6.5480,-0.004802
6.5520,-0.004993
6.5560,-0.005175
6.5600,-0.005351
6.5640,-0.005519
6.5680,-0.005682
6.5720,-0.005839
6.5760,-0.005992
6.5800,-0.006141
6.5840,-0.006286
6.5880,-0.006428
6.5920,-0.006566
6.5960,-0.006702
6.6000,-0.006834
6.6040,-0.006964
6.6080,-0.007091
6.6120,-0.007215
6.6160,-0.007337
6.6200,-0.007456
6.6240,-0.007573
6.6280,-0.007687
6.6320,-0.007799
6.6360,-0.007908
6.6400,-0.008015
6.6440,-0.008119
6.6480,-0.008221
6.6520,-0.008320
6.6560,-0.008326
6.6600,-0.008379
6.6640,-0.008414
6.6680,-0.008424
6.6720,-0.008402
6.6760,-0.008340
6.6800,-0.008225
6.6840,-0.008043
6.6880,-0.007779
6.6920,-0.007410
6.6960,-0.006914
6.7000,-0.006264
6.7040,-0.005429
6.7080,-0.004375
6.7120,-0.003068
6.7160,-0.001470
6.7200,0.000457
6.7240,0.002748
6.7280,0.005434
6.7320,0.008543
6.7360,0.012093
6.7400,0.016090
6.7440,0.020531
6.7480,0.025393
6.7520,0.030639
6.7560,0.036213
6.7600,0.042042
6.7640,0.048033
6.7680,0.054078
6.7720,0.060056
6.7760,0.065836
6.7800,0.071280
6.7840,0.076252
6.7880,0.080621
6.7920,0.084268
6.7960,0.087089
6.8000,0.089003
6.8040,0.089955
6.8080,0.089916
6.8120,0.088888
6.8160,0.086904
6.8200,0.084022
6.8240,0.080328
6.8280,0.075928
6.8320,0.070943
6.8360,0.065506
6.8400,0.059757
6.8440,0.053833
6.8480,0.047874
6.8520,0.042017
6.8560,0.036407
6.8600,0.031219
6.8640,0.026684
6.8680,0.023134
6.8720,0.021062
6.8760,0.021241
6.8800,0.024995
6.8840,0.034726
6.8880,0.054641
6.8920,0.091195
6.8960,0.152328
6.9000,0.244669
6.9040,0.368931
6.9080,0.515440
6.9120,0.662765
6.9160,0.781602
6.9200,0.843492
6.9240,0.831079
6.9280,0.745288
6.9320,0.605781
6.9360,0.444060
6.9400,0.292201
6.9440,0.172525
6.9480,0.092850
6.9520,0.048509
6.9560,0.028560
6.9600,0.022014
6.9640,0.021278
6.9680,0.022540
6.9720,0.024502
6.9760,0.026966
6.9800,0.029974
6.9840,0.033521
6.9880,0.037539
6.9920,0.041949
6.9960,0.046693
7.0000,0.051736
7.0040,0.057054
7.0080,0.062633
7.0120,0.068456
7.0160,0.074508
7.0200,0.080767
7.0240,0.087211
7.0280,0.093812
7.0320,0.100540
7.0360,0.107361
7.0400,0.114240
7.0440,0.121136
7.0480,0.128008
7.0520,0.134812
7.0560,0.141502
7.0600,0.148032
7.0640,0.154354
7.0680,0.160422
7.0720,0.166188
7.0760,0.171608
7.0800,0.176636
7.0840,0.181233
7.0880,0.185360
7.0920,0.188981
7.0960,0.192067
7.1000,0.194590
7.1040,0.196529
7.1080,0.197869
7.1120,0.198598
7.1160,0.198710
7.1200,0.198208
7.1240,0.197096
7.1280,0.195387
7.1320,0.193097
7.1360,0.190250
7.1400,0.186872
7.1440,0.182995
7.1480,0.178654
7.1520,0.173888
7.1560,0.168739
7.1600,0.163251
7.1640,0.157469
7.1680,0.151441
7.1720,0.145214
7.1760,0.138834
7.1800,0.132348
7.1840,0.125801
7.1880,0.119237
7.1920,0.112696
7.1960,0.106217
7.2000,0.099837
7.2040,0.093588
7.2080,0.087500
7.2120,0.081599
7.2160,0.075907
7.2200,0.070443
7.2240,0.065223
7.2280,0.060259
7.2320,0.055560
7.2360,0.051132
7.2400,0.046978
7.2440,0.043097
7.2480,0.039488
7.2520,0.036145
7.2560,0.033064
7.2600,0.030235
7.2640,0.027649
7.2680,0.025296
7.2720,0.023164
7.2760,0.021241
7.2800,0.019515
7.2840,0.017972
7.2880,0.016600
7.2920,0.015386
7.2960,0.014318
7.3000,0.013383
7.3040,0.012569
7.3080,0.011866
7.3120,0.011261
7.3160,0.010747
7.3200,0.010312
7.3240,0.009948
7.3280,0.009647
7.3320,0.009401
7.3360,0.009204
7.3400,0.009050
7.3440,0.008932
7.3480,0.008846
7.3520,0.008788
7.3560,0.008752
7.3600,0.008736
7.3640,0.008737
7.3680,0.008751
7.3720,0.008776
7.3760,0.008810
7.3800,0.008852
7.3840,0.008900
7.3880,0.008951
7.3920,0.009006
7.3960,0.009063
7.4000,0.009122
7.4040,0.009180
7.4080,0.009239
7.4120,0.009298
7.4160,0.009355
7.4200,0.009411
7.4240,0.009465
7.4280,0.009517
7.4320,0.009567
7.4360,0.009615
7.4400,0.009661
7.4440,0.009704
7.4480,0.009744
7.4520,0.009781
7.4560,0.009816
7.4600,0.009848
7.4640,0.009876
7.4680,0.009902
7.4720,0.009925
7.4760,0.009945
7.4800,0.009962
7.4840,0.009976
7.4880,0.010076
7.4920,0.010125
7.4960,0.010186
7.5000,0.010266
7.5040,0.010372
7.5080,0.010512
7.5120,0.010700
7.5160,0.010948
7.5200,0.011273
7.5240,0.011697
7.5280,0.012242
7.5320,0.012935
7.5360,0.013807
7.5400,0.014892
7.5440,0.016224
7.5480,0.017842
7.5520,0.019782
7.5560,0.022080
7.5600,0.024768
7.5640,0.027872
7.5680,0.031411
7.5720,0.035392
7.5760,0.039809
7.5800,0.044643
7.5840,0.049854
7.5880,0.055388
7.5920,0.061171
7.5960,0.067109
7.6000,0.073096
7.6040,0.079010
7.6080,0.084719
7.6120,0.090087
7.6160,0.094978
7.6200,0.099260
7.6240,0.102813
7.6280,0.105536
7.6320,0.107345
7.6360,0.108186
7.6400,0.108031
7.6440,0.106882
7.6480,0.104770
7.6520,0.101756
7.6560,0.097924
7.6600,0.093380
7.6640,0.088245
7.6680,0.082655
7.6720,0.076745
7.6760,0.070657
7.6800,0.064528
7.6840,0.058495
7.6880,0.052705
7.6920,0.047331
7.6960,0.042605
7.7000,0.038860
7.7040,0.036588
7.7080,0.036563
7.7120,0.040106
7.7160,0.049623
7.7200,0.069319
7.7240,0.105649
7.7280,0.166554
7.7320,0.258663
7.7360,0.382688
7.7400,0.528956
7.7440,0.676035
7.7480,0.794623
7.7520,0.856259
7.7560,0.843589
7.7600,0.757536
7.7640,0.617765
7.7680,0.455775
7.7720,0.303643
7.7760,0.183692
7.7800,0.103737
7.7840,0.059113
7.7880,0.038879
7.7920,0.032044
7.7960,0.031015
7.8000,0.031981
7.8040,0.033645
7.8080,0.035808
7.8120,0.038513
7.8160,0.041753
7.8200,0.045462
7.8240,0.049560
7.8280,0.053991
7.8320,0.058717
7.8360,0.063717
7.8400,0.068976
7.8440,0.074477
7.8480,0.080204
7.8520,0.086138
7.8560,0.092254
7.8600,0.098525
7.8640,0.104923
7.8680,0.111413
7.8720,0.117958
7.8760,0.124520
7.8800,0.131056
7.8840,0.137524
7.8880,0.143877
7.8920,0.150069
7.8960,0.156053
7.9000,0.161781
7.9040,0.167208
7.9080,0.172288
7.9120,0.176977
7.9160,0.181233
7.9200,0.185020
7.9240,0.188301
7.9280,0.191047
7.9320,0.193231
7.9360,0.194831
7.9400,0.195832
7.9440,0.196223
7.9480,0.195998
7.9520,0.195159
7.9560,0.193712
7.9600,0.191669
7.9640,0.189046
7.9680,0.185867
7.9720,0.182158
7.9760,0.177952
7.9800,0.173283
7.9840,0.168191
7.9880,0.162718
7.9920,0.156908
7.9960,0.150806
